		omega		Posterior		rho				Synonymous theta			kappa			phi	
Site	Lower	Point	Higher	prob of +ve	Lower	Point	Higher		Lower	Point	Higher	Lower	Point	Higher	Lower	Point	Higher
	95% HPD	estimate	95% HPD	selection	95% HPD	estimate	95% HPD		95% HPD	estimate	95% HPD	95% HPD	estimate	95% HPD	95% HPD	estimate	95% HPD
0	0.0735268	2.81458	92.8427	0.658171	0.0100933	0.0590498	0.412946		0.0867592	0.0978761	0.109414	3.03565	4.00292	4.99921	0.0413443	3.01341e+08	1.86082e+24
1	0.0447457	1.81992	97.2435	0.587706	0.0100933	0.0550239	0.380051
2	0.0212996	1.14214	92.8427	0.512744	0.0100933	0.0589145	0.412946
3	0.0108133	0.738698	53.2379	0.43928	0.0100933	0.0584	0.412946
4	0.0105931	0.507956	21.5247	0.367316	0.0100933	0.054387	0.364797
5	0.0104736	0.315608	4.51742	0.28036	0.0100933	0.0565646	0.38487
6	0.0100336	0.0642704	1.28068	0.0689655	0.0100933	0.059138	0.410023
7	0.0100336	0.0385078	0.54761	0.0089955	0.0100933	0.0602427	0.410023
8	0.0100336	0.0323685	0.380125	0.00449775	0.0100933	0.0691892	0.561271
9	0.0100937	0.0300127	0.342265	0	0.0100933	0.071787	0.5774
10	0.0100321	0.0291305	0.296854	0	0.0100933	0.0717312	0.577625
11	0.0100336	0.0281158	0.261702	0	0.0100933	0.0723575	0.577625
12	0.0100336	0.0263245	0.143367	0	0.0100933	0.0748987	0.589152
13	0.0100321	0.0246392	0.132034	0	0.0100933	0.0783405	0.65533
14	0.0100321	0.0239006	0.107485	0	0.0100933	0.0812825	0.738278
15	0.0100321	0.0233534	0.0998305	0	0.0100933	0.084469	0.869884
16	0.0100321	0.0226391	0.0900031	0	0.0100933	0.0866311	1.37406
17	0.0100321	0.0213537	0.0790228	0	0.0100933	0.0813697	1.62524
18	0.0100321	0.020946	0.077467	0	0.0100933	0.0855311	1.90976
19	0.0100321	0.0206323	0.073383	0	0.0100714	0.0899046	3.40968
20	0.0100321	0.0206341	0.0728142	0	0.0100933	0.105579	5.98815
21	0.0100321	0.0204943	0.0663008	0	0.0100933	0.106376	5.98815
22	0.0100321	0.0205868	0.070738	0	0.0100933	0.104114	4.17873
23	0.0100321	0.020533	0.070738	0	0.0100933	0.107428	7.28078
24	0.0100321	0.0206637	0.0728142	0	0.0100933	0.111358	9.53772
25	0.0100321	0.0207552	0.0728142	0	0.0100933	0.11344	18.3766
26	0.0100336	0.0204587	0.0644858	0	0.0100933	0.111404	8.96051
27	0.0100336	0.0201914	0.0619586	0	0.0100933	0.106326	8.96051
28	0.0100321	0.0200663	0.0609903	0	0.0100933	0.109718	8.96051
29	0.0100336	0.0200816	0.0609903	0	0.0100933	0.111612	8.96051
30	0.0100336	0.0200247	0.0609903	0	0.0100933	0.109916	7.88005
31	0.0100321	0.0204835	0.0630928	0	0.0100933	0.105101	5.90753
32	0.0100321	0.0206105	0.0636987	0	0.0100933	0.103831	3.86257
33	0.0100336	0.0205993	0.0663008	0	0.0100933	0.10784	3.86257
34	0.0100321	0.0210031	0.073383	0	0.0100933	0.105525	5.90753
35	0.0100321	0.0206782	0.073383	0	0.0100933	0.0997929	12.7881
36	0.0100321	0.0205333	0.073383	0	0.0100933	0.0975684	18.9634
37	0.0100321	0.0204636	0.073383	0	0.0100933	0.0858898	10.1366
38	0.0100321	0.0204117	0.073383	0	0.0100933	0.0617295	0.347451
39	0.0100321	0.020598	0.073383	0	0.0100933	0.063915	0.347451
40	0.0100321	0.0206307	0.0726941	0	0.0100933	0.0643889	0.348025
41	0.0100336	0.0204958	0.0726941	0	0.0100933	0.0644103	0.31616
42	0.0100321	0.0203395	0.070738	0	0.0100933	0.0661637	0.304394
43	0.0100321	0.0203037	0.070738	0	0.0100933	0.0674429	0.294838
44	0.0100321	0.0201972	0.0707097	0	0.0102827	0.06966	0.310882
45	0.0100321	0.0202603	0.070738	0	0.0102827	0.0722022	0.323822
46	0.0100321	0.0203182	0.070738	0	0.0102827	0.0739632	0.323822
47	0.0100321	0.0201858	0.070738	0	0.0102827	0.0774854	0.356831
48	0.0100336	0.0201172	0.0707097	0	0.0102827	0.0849783	0.47904
49	0.0100336	0.0200491	0.0707097	0	0.0102827	0.089667	0.506405
50	0.0100336	0.0200071	0.070738	0	0.0106266	0.0934423	0.524524
51	0.0100336	0.0199745	0.0726941	0	0.0102827	0.105542	0.79739
52	0.0100336	0.0195816	0.0674678	0	0.0102827	0.100779	0.541665
53	0.0100336	0.0194287	0.0663008	0	0.0106266	0.0990463	0.524524
54	0.0100336	0.0194228	0.0663008	0	0.011672	0.0943409	0.524524
55	0.0100336	0.0194228	0.0663008	0	0.0106266	0.0936424	0.519764
56	0.0100336	0.0193694	0.0663008	0	0.0102827	0.0884064	0.473963
57	0.0100336	0.0193073	0.0663008	0	0.0102827	0.0840124	0.422441
58	0.0100336	0.0193243	0.0663008	0	0.0103542	0.0806972	0.422441
59	0.0100336	0.019309	0.0630267	0	0.0103542	0.0775213	0.422441
60	0.0100336	0.0218141	0.0930718	0.0254873	0.0102714	0.0765214	0.41419
61	0.0100336	0.019858	0.0726941	0.005997	0.0103542	0.0775968	0.422441
62	0.0100336	0.0191636	0.0663008	0	0.0103542	0.078151	0.422441
63	0.0100336	0.0190155	0.0663008	0	0.0102827	0.0890528	0.700134
64	0.0100336	0.0189562	0.0663008	0	0.0103542	0.0954849	1.0696
65	0.0100336	0.0186697	0.0516041	0	0.0102827	0.103272	1.0696
66	0.0100336	0.0186848	0.0516041	0	0.0102827	0.107478	1.18023
67	0.0100336	0.0184522	0.0479057	0	0.0102827	0.132673	3.45102
68	0.0100336	0.0182061	0.0418379	0	0.011712	0.112836	1.92082
69	0.0100336	0.0175859	0.0381545	0	0.0102827	0.0987861	0.840124
70	0.0100336	0.0175768	0.0380586	0	0.0114779	0.113528	1.83907
71	0.0100336	0.0181546	0.0400083	0	0.0103663	0.107573	1.83907
72	0.0100336	0.0179373	0.0394001	0	0.011712	0.105204	1.83907
73	0.0100336	0.0183739	0.0403027	0	0.0103663	0.0910402	1.22851
74	0.0100336	0.0186095	0.0479057	0	0.0103663	0.0787493	0.857239
75	0.0100336	0.0182556	0.0401652	0	0.0108432	0.0774582	1.83907
76	0.0100336	0.0184856	0.0403027	0	0.0108432	0.0928858	13.37
77	0.0100336	0.0186035	0.0436696	0	0.0100384	0.103892	19.1956
78	0.0100336	0.0184441	0.042348	0	0.0108432	0.114536	44.9327
79	0.0100336	0.0185173	0.0418379	0	0.0100384	0.0922953	39.5349
80	0.0100336	0.0185974	0.042348	0	0.0100384	0.0841529	1.87773
81	0.0100336	0.0187379	0.0446788	0	0.0103663	0.0722462	0.568336
82	0.0100336	0.018857	0.0493857	0	0.0100384	0.0620257	0.48896
83	0.0100336	0.0191893	0.0517695	0	0.0100384	0.0597169	0.48896
84	0.0100661	0.0192633	0.0518037	0	0.0100384	0.0523772	0.25789
85	0.0100661	0.0193361	0.0518037	0	0.0100384	0.0508208	0.244293
86	0.0100336	0.0194238	0.0517695	0	0.0100384	0.050334	0.219224
87	0.0100661	0.0192164	0.0518037	0	0.0100384	0.0496343	0.208553
88	0.0100336	0.0189158	0.0493857	0	0.0100384	0.051032	0.219089
89	0.0100336	0.0189394	0.0493857	0	0.0100326	0.0504113	0.219089
90	0.0100336	0.0188667	0.0451475	0	0.0100326	0.0509743	0.244293
91	0.0100336	0.018628	0.042348	0	0.0100326	0.0496737	0.244293
92	0.0100336	0.018532	0.0418379	0	0.0100326	0.0470646	0.244293
93	0.0100336	0.0185697	0.0418379	0	0.0100326	0.0451712	0.219089
94	0.0100336	0.0189095	0.0471098	0	0.0100326	0.0457693	0.244293
95	0.0100336	0.0191848	0.0493857	0	0.0100326	0.0474477	0.33399
96	0.0100336	0.0194922	0.0518037	0	0.0100326	0.0478176	0.33399
97	0.0100336	0.0197857	0.0546535	0	0.0100326	0.0493442	0.413904
98	0.0100336	0.0196804	0.05286	0	0.0100326	0.048667	0.33399
99	0.0100336	0.0198485	0.05286	0	0.0100326	0.0491029	0.302951
100	0.0100661	0.0201114	0.0583948	0.00149925	0.0100326	0.0494916	0.230758
101	0.0100336	0.0200901	0.0583948	0	0.0100326	0.0517783	0.326011
102	0.0100336	0.0201227	0.0583948	0	0.0100384	0.0526528	0.326011
103	0.0100336	0.0203135	0.0583948	0	0.0100326	0.0526229	0.229959
104	0.0100336	0.0204935	0.0607163	0	0.0100326	0.0526631	0.219224
105	0.010087	0.0207749	0.0627833	0	0.0100326	0.0509598	0.212214
106	0.0100336	0.020809	0.0607163	0	0.0100326	0.0520704	0.219224
107	0.0100661	0.0206784	0.0583948	0	0.0100326	0.0545982	0.275163
108	0.0100336	0.0207468	0.0583948	0	0.0100326	0.0548495	0.280418
109	0.0100336	0.0205682	0.0546535	0	0.0100059	0.0546908	0.280418
110	0.0100336	0.0205349	0.05286	0	0.0100059	0.0554139	0.284522
111	0.0100336	0.0205242	0.0518133	0	0.0100326	0.0569793	0.285778
112	0.0100336	0.0205231	0.05286	0	0.0100326	0.0573888	0.285778
113	0.0100336	0.0202957	0.0518037	0	0.0100059	0.0570075	0.282179
114	0.0100336	0.0202175	0.0518133	0	0.0100059	0.0595849	0.292927
115	0.0100336	0.0204476	0.0558227	0	0.0100059	0.0619939	0.322928
116	0.0100336	0.0203135	0.0556281	0	0.0100059	0.0650313	0.35215
117	0.0100336	0.0203742	0.0558227	0	0.0100059	0.0719465	0.361532
118	0.0100336	0.0205721	0.0583948	0	0.0101877	0.0788454	0.361532
119	0.0100336	0.0206091	0.0583948	0	0.0124785	0.0776386	0.428912
120	0.0100336	0.0206358	0.0596933	0	0.010048	0.0762059	0.330789
121	0.0100336	0.0207539	0.0607163	0	0.0124785	0.0778609	0.413904
122	0.0100336	0.020945	0.0625206	0	0.0132594	0.0866319	0.428912
123	0.0100661	0.0209156	0.0638593	0	0.0127515	0.0959137	0.458961
124	0.0100661	0.0209693	0.0648527	0	0.0127515	0.108339	0.593384
125	0.0100661	0.020744	0.0648527	0	0.0127515	0.124101	0.677876
126	0.0100845	0.0212998	0.0696464	0	0.010048	0.133456	0.677876
127	0.0100661	0.0218721	0.0737704	0	0.0135794	0.203687	12.6239
128	0.0100845	0.0216897	0.0737704	0	0.023642	0.294586	23.0622
129	0.0100661	0.0227682	0.0823556	0	0.027123	0.396285	29.6575
130	0.0100661	0.022079	0.0737704	0	0.027123	0.432054	35.3264
131	0.0100845	0.0222958	0.0737704	0	0.032777	0.495721	37.8361
132	0.0100661	0.0226055	0.0737704	0	0.0504806	0.553889	45.1198
133	0.0100661	0.0226866	0.0737704	0	0.0412361	0.46705	35.3264
134	0.0100845	0.0224015	0.0737704	0	0.0446792	0.442873	28.1597
135	0.0100661	0.0221067	0.072795	0	0.0554106	0.429961	28.1597
136	0.0100661	0.0220067	0.072795	0	0.0504806	0.391037	17.9109
137	0.0100661	0.0218891	0.0736155	0	0.0531823	0.388975	15.2614
138	0.0100845	0.0217665	0.0737704	0	0.0570316	0.377886	15.2614
139	0.0100661	0.0215414	0.0736155	0	0.0531823	0.371098	15.2614
140	0.0100661	0.0217053	0.0737704	0	0.0395102	0.295514	22.8904
141	0.0100845	0.021713	0.0737704	0	0.0369649	0.239642	22.8904
142	0.0100661	0.0228683	0.0964906	0	0.0117682	0.226911	7.50855
143	0.0100661	0.0233449	0.0991826	0.00149925	0.0105318	0.208387	1.20972
144	0.0100661	0.0242654	0.127401	0.00149925	0.0135554	0.170011	0.763618
145	0.0100661	0.0246018	0.147583	0.00149925	0.0141054	0.157017	0.763618
146	0.0100661	0.0249103	0.158592	0.00149925	0.0130494	0.156229	0.763618
147	0.0100845	0.0257131	0.170502	0.00149925	0.0139071	0.162934	0.74746
148	0.0100845	0.0259198	0.149521	0.00149925	0.0107598	0.167409	0.716523
149	0.0100845	0.0265261	0.158592	0	0.0107598	0.20549	1.10474
150	0.0100845	0.026474	0.15094	0	0.0141054	0.196749	1.32443
151	0.0100845	0.0273256	0.175803	0	0.0135554	0.184306	1.2227
152	0.0100845	0.027501	0.175803	0	0.0107598	0.158483	0.716523
153	0.0100845	0.0282566	0.175803	0	0.0107598	0.130607	0.483679
154	0.0100845	0.0295694	0.199887	0	0.0120463	0.123099	0.483679
155	0.0100845	0.0307241	0.228635	0	0.0148088	0.111194	0.469555
156	0.0100845	0.0313842	0.24979	0	0.0148088	0.106671	0.469555
157	0.0100845	0.0328548	0.321642	0	0.0127802	0.104459	0.366073
158	0.0100845	0.0421616	0.633358	0.00749625	0.0141054	0.10213	0.376113
159	0.0100845	0.0458771	0.665125	0.0149925	0.0141054	0.100747	0.361532
160	0.0100845	0.0647601	1.12118	0.05997	0.0148088	0.100944	0.376113
161	0.0103515	0.12166	1.735	0.151424	0.0141054	0.102657	0.376113
162	0.0161557	0.427384	4.01075	0.31934	0.0141054	0.105228	0.360841
163	0.0113708	0.14435	1.91569	0.142429	0.0143706	0.111556	0.360841
164	0.0100584	0.0766216	1.11939	0.05997	0.0148716	0.113948	0.360841
165	0.0106244	0.0614653	0.82547	0.0269865	0.0148716	0.116219	0.360621
166	0.0100584	0.0516052	0.753569	0.023988	0.0148716	0.117371	0.360621
167	0.0100584	0.0455327	0.431158	0.0104948	0.0148088	0.120371	0.360841
168	0.0100301	0.041204	0.363405	0.0029985	0.0143706	0.122291	0.360841
169	0.0100301	0.0353421	0.288976	0	0.0188328	0.128221	0.480488
170	0.0100301	0.0326161	0.191435	0	0.0188328	0.130977	0.429221
171	0.0100301	0.0310368	0.168743	0	0.0188328	0.133372	0.480488
172	0.0100301	0.0295857	0.142249	0	0.0188328	0.137876	0.516365
173	0.0100584	0.0287666	0.134878	0	0.0188328	0.139243	0.516365
174	0.0100584	0.0285045	0.134878	0	0.0287606	0.138497	0.879831
175	0.0101937	0.0281548	0.136751	0	0.0143706	0.138782	0.471371
176	0.0100301	0.0271717	0.129587	0	0.0287606	0.14454	1.03966
177	0.0100301	0.0268415	0.110459	0	0.0188328	0.147314	0.700581
178	0.0100301	0.0266445	0.0957553	0	0.0259413	0.15105	1.03966
179	0.0100301	0.0265518	0.0957553	0	0.0287606	0.15601	1.03966
180	0.0100245	0.0265006	0.0957553	0	0.0259413	0.160214	1.03966
181	0.0100245	0.0267095	0.111053	0	0.0259413	0.16095	1.03966
182	0.0100301	0.0257872	0.0957553	0	0.0287606	0.157991	1.03966
183	0.0100301	0.0256462	0.0957553	0	0.0235555	0.157034	0.876519
184	0.0100301	0.0257959	0.0957553	0	0.0235555	0.156507	0.888355
185	0.0100301	0.0260446	0.0957553	0	0.0259413	0.161839	1.03966
186	0.0100301	0.0258755	0.0957553	0	0.0143706	0.152935	0.623246
187	0.0100245	0.0253008	0.0798124	0	0.0143706	0.153984	0.645965
188	0.0100245	0.0251286	0.0771245	0	0.0143706	0.163011	0.838657
189	0.0100245	0.0247177	0.06714	0	0.01258	0.179091	1.48708
190	0.0100245	0.0250583	0.0771245	0	0.01258	0.222016	3.87573
191	0.0100245	0.0250991	0.0780662	0	0.01258	0.235512	11.624
192	0.0100245	0.0249035	0.0748225	0	0.01258	0.237366	12.3202
193	0.0100245	0.025044	0.0748225	0	0.0135498	0.238372	20.8493
194	0.0100245	0.0249065	0.0741985	0	0.0135498	0.245062	20.8493
195	0.0100245	0.0246186	0.0662704	0	0.0135498	0.23357	12.3202
196	0.0100245	0.0242685	0.0654143	0	0.0117221	0.179103	1.49588
197	0.0100245	0.0241785	0.064483	0	0.0117221	0.155307	0.824593
198	0.0100301	0.0238567	0.064419	0	0.0117221	0.150653	0.810052
199	0.0100245	0.0234731	0.0640105	0	0.0117221	0.138925	0.611417
200	0.0100245	0.023517	0.0640105	0	0.0154294	0.13285	0.775414
201	0.0100245	0.0237037	0.064419	0	0.0117221	0.130253	0.592013
202	0.0100301	0.0233326	0.0640105	0	0.0117221	0.128576	0.592013
203	0.0100245	0.0232932	0.0640105	0	0.0117221	0.129802	0.592013
204	0.0100301	0.0232794	0.0640105	0	0.0117221	0.132656	0.592514
205	0.0100245	0.0231861	0.0621405	0	0.0117221	0.134497	0.592514
206	0.0100245	0.0231582	0.0610424	0	0.0117221	0.130692	0.592013
207	0.0100245	0.0230347	0.0591784	0.00149925	0.0111313	0.127983	0.546192
208	0.0100245	0.0227407	0.0552262	0.00149925	0.0117221	0.127338	0.614426
209	0.0100245	0.0227855	0.0552262	0.00149925	0.0111313	0.118419	0.511486
210	0.0100245	0.022671	0.0552262	0	0.0111313	0.11477	0.571072
211	0.0100245	0.0224214	0.0546643	0	0.0111313	0.110763	0.501966
212	0.0100245	0.0223579	0.0546643	0	0.0111313	0.105954	0.431201
213	0.0100245	0.0221801	0.0535874	0	0.011573	0.103221	0.431201
214	0.0100245	0.022318	0.0546643	0	0.0111313	0.100743	0.406033
215	0.0100245	0.0222038	0.0552262	0	0.011573	0.0984164	0.4306
216	0.0100245	0.022478	0.0561736	0	0.011573	0.0985689	0.4306
217	0.0100245	0.0224985	0.0556274	0	0.011573	0.0997316	0.4306
218	0.0100245	0.0227328	0.0583386	0	0.011573	0.105204	0.4306
219	0.0100245	0.023246	0.0608812	0	0.011573	0.104974	0.4306
220	0.0105826	0.0237504	0.0655028	0	0.011573	0.107054	0.431201
221	0.0104112	0.0238239	0.064483	0	0.011573	0.10951	0.4306
222	0.0104112	0.023742	0.064483	0	0.0122671	0.116555	0.484643
223	0.010272	0.0239384	0.064483	0	0.01258	0.119373	0.483123
224	0.0100245	0.0247658	0.0666664	0	0.0122691	0.122256	0.483123
225	0.0100527	0.0246856	0.0668023	0	0.0148045	0.132979	0.483123
226	0.0100245	0.0248134	0.0668023	0	0.0149564	0.13777	0.483123
227	0.0100245	0.0252209	0.0715697	0	0.0148045	0.141419	0.474094
228	0.0100245	0.0252053	0.067511	0	0.0148045	0.149096	0.483387
229	0.0100245	0.0254431	0.0725502	0	0.0235874	0.173866	0.711739
230	0.0100245	0.0258746	0.0757897	0	0.0319673	0.195834	0.742461
231	0.0100245	0.0258976	0.08204	0	0.0319673	0.202068	0.818781
232	0.0100245	0.0260207	0.0975808	0	0.0716884	0.213105	1.2311
233	0.0100584	0.0262464	0.0982357	0	0.0716884	0.21271	1.2311
234	0.0100245	0.027091	0.0994141	0	0.0707608	0.209639	1.2311
235	0.0100245	0.0274455	0.107248	0	0.0504655	0.204084	1.2311
236	0.0100245	0.0276435	0.114946	0	0.0318474	0.201881	1.01028
237	0.0100245	0.0274332	0.111227	0	0.0318474	0.20868	1.03973
238	0.0100245	0.02742	0.108021	0	0.0318474	0.219648	1.18143
239	0.0100245	0.0283938	0.1287	0	0.0707608	0.237985	2.63896
240	0.0100527	0.0293989	0.148821	0	0.0836839	0.261961	1.18143
241	0.0100245	0.0306935	0.16486	0	0.0830438	0.266357	1.2311
242	0.0103562	0.0316004	0.181442	0	0.0841649	0.269793	1.31082
243	0.0100527	0.0313864	0.166272	0	0.0836839	0.272175	1.31082
244	0.0100527	0.0310894	0.166272	0	0.0836839	0.27417	1.31082
245	0.0100245	0.0380882	0.271834	0.0269865	0.0836839	0.27417	1.31082
246	0.0109691	0.0728575	8.62118	0.145427	0.0836839	0.273787	1.31082
247	0.0100245	0.0351559	0.170239	0.0209895	0.0836839	0.272593	1.31082
248	0.0100245	0.0301507	0.132616	0.0029985	0.0836839	0.27241	1.31082
249	0.0100245	0.0294741	0.11173	0.00149925	0.0830438	0.282515	1.39766
250	0.0100245	0.0287153	0.108021	0	0.0830438	0.289965	1.48856
251	0.0100245	0.0286718	0.108021	0	0.0804958	0.288006	1.52433
252	0.0100527	0.0289847	0.11173	0.00449775	0.0745156	0.284108	1.48856
253	0.0100245	0.0291215	0.11173	0.0089955	0.0697571	0.278833	1.70193
254	0.0100245	0.0296228	0.114946	0.0089955	0.0551773	0.252357	1.44282
255	0.0100245	0.0280656	0.094733	0	0.0472408	0.246118	1.39766
256	0.0100245	0.0279913	0.0934295	0	0.0401371	0.215892	1.31082
257	0.0100245	0.0276968	0.0889228	0	0.0401371	0.199208	1.31082
258	0.0100245	0.0272475	0.0804858	0	0.0179985	0.178353	0.742461
259	0.0100245	0.0273817	0.08032	0	0.0159776	0.16612	0.677135
260	0.0100527	0.0273571	0.08032	0	0.0159776	0.148827	0.63221
261	0.0100245	0.02704	0.0757897	0	0.0159776	0.13872	0.727056
262	0.0100245	0.0270288	0.0785699	0	0.0132516	0.118399	0.63221
263	0.0100584	0.0272736	0.0805593	0	0.0122934	0.0968883	0.651841
264	0.0100584	0.0272707	0.0805593	0	0.0110572	0.0794092	0.511573
265	0.0100527	0.0272219	0.0805343	0	0.0122934	0.0743916	0.511573
266	0.0100584	0.0272108	0.0805343	0	0.0122934	0.072522	0.510452
267	0.0100584	0.0272954	0.0805593	0	0.0101709	0.0714985	0.44241
268	0.0100245	0.0279286	0.0805343	0.0029985	0.0107413	0.0656853	0.437633
269	0.0100245	0.0287835	0.0852195	0.0089955	0.0101294	0.0599917	0.327519
270	0.0100245	0.0279635	0.0805593	0	0.0101294	0.059677	0.297184
271	0.0100245	0.0280636	0.0823305	0	0.0101294	0.0589747	0.261516
272	0.0100245	0.0279287	0.0805593	0	0.0101294	0.0585774	0.245974
273	0.0100584	0.0273805	0.0805593	0	0.0101294	0.0580335	0.245974
274	0.0100653	0.0271631	0.0805593	0	0.0101294	0.0592051	0.245588
275	0.0101666	0.0266636	0.0805343	0	0.0101294	0.060518	0.20944
276	0.0101666	0.0266593	0.0805593	0	0.010425	0.0592488	0.20944
277	0.0101666	0.0266593	0.0805593	0	0.010425	0.0603254	0.209535
278	0.0101666	0.0266598	0.0805593	0	0.0109154	0.0606084	0.214521
279	0.0100245	0.0264603	0.0785699	0	0.0130945	0.0605914	0.298714
280	0.0101666	0.0267001	0.0805593	0	0.0130945	0.0589176	0.2417
281	0.0101666	0.0266487	0.0805343	0	0.0124593	0.0585986	0.2417
282	0.0100584	0.0266721	0.0805593	0	0.0130945	0.0579935	0.2417
283	0.0100527	0.0263077	0.08032	0	0.0130945	0.0551462	0.214521
284	0.0100245	0.026303	0.0757897	0	0.0130945	0.0540749	0.214521
285	0.0100245	0.0261483	0.0739536	0	0.0130945	0.0519961	0.217955
286	0.0100245	0.0260825	0.0715697	0	0.0130945	0.0509474	0.214521
287	0.0100245	0.0261688	0.0715697	0	0.0130945	0.0467337	0.217955
288	0.0100245	0.0262496	0.0715697	0	0.0130945	0.0467288	0.217955
289	0.0100245	0.0271413	0.0807393	0	0.0130945	0.0469882	0.217955
290	0.0100245	0.0271471	0.0807393	0	0.0130945	0.0471178	0.214521
291	0.0100584	0.0276125	0.0897386	0	0.0130945	0.0470455	0.209535
292	0.0100584	0.0276781	0.0897386	0	0.0130945	0.0459935	0.209535
293	0.0100584	0.0283683	0.0897386	0	0.0130945	0.0455232	0.209535
294	0.0100584	0.0295267	0.107818	0	0.0130945	0.0454878	0.209535
295	0.0100584	0.0299433	0.10835	0	0.0130945	0.0454878	0.209535
296	0.0100584	0.0302248	0.117355	0	0.0130945	0.0468085	0.231222
297	0.0100584	0.0305642	0.117355	0	0.0100243	0.0484263	0.214521
298	0.0100584	0.0312215	0.120223	0	0.0100243	0.047911	0.217955
299	0.0100584	0.0310182	0.120022	0	0.0106465	0.0485217	0.235688
300	0.0100584	0.0312414	0.124767	0	0.0101294	0.049431	0.223154
301	0.0100584	0.0319049	0.132616	0	0.0130945	0.0516788	0.308365
302	0.0100584	0.0319835	0.132616	0	0.0130945	0.0516426	0.304087
303	0.0100653	0.0321162	0.134008	0	0.0132052	0.0521944	0.308365
304	0.0100653	0.0324303	0.134008	0	0.0130945	0.0527839	0.308365
305	0.0100584	0.0311365	0.120223	0	0.0132599	0.0525624	0.308365
306	0.0100584	0.0300691	0.103085	0	0.0130945	0.052093	0.308365
